Frequency (Hz)	Amplitude (mm)	Phase Angle (deg)	Real (mm)	Imaginary (mm)
1116.	1.7396e-004	-179.49	-1.7395e-004	-1.5567e-006
1232.	1.398e-004	-179.57	-1.3979e-004	-1.0584e-006
1348.	1.1475e-004	-179.6	-1.1475e-004	-8.0243e-007
1464.	9.5639e-005	-179.62	-9.5636e-005	-6.3295e-007
1580.	8.0674e-005	-179.63	-8.0672e-005	-5.1417e-007
1696.	6.872e-005	-179.64	-6.8718e-005	-4.2847e-007
1812.	5.9001e-005	-179.65	-5.9e-005	-3.6553e-007
1928.	5.0972e-005	-179.64	-5.0971e-005	-3.19e-007
2044.	4.4225e-005	-179.63	-4.4224e-005	-2.8536e-007
2160.	3.839e-005	-179.6	-3.8389e-005	-2.6608e-007
2276.	3.2447e-005	-179.38	-3.2445e-005	-3.5107e-007
2392.	3.1565e-005	-179.44	-3.1563e-005	-3.1112e-007
2508.	2.7003e-005	-179.54	-2.7002e-005	-2.1792e-007
2624.	2.3676e-005	-179.51	-2.3675e-005	-2.027e-007
2740.	2.084e-005	-179.46	-2.0839e-005	-1.9522e-007
2856.	1.8356e-005	-179.4	-1.8355e-005	-1.9107e-007
2972.	1.6153e-005	-179.33	-1.6152e-005	-1.8914e-007
3088.	1.4184e-005	-179.24	-1.4183e-005	-1.8886e-007
3204.	1.2411e-005	-179.12	-1.241e-005	-1.8986e-007
3320.	1.0807e-005	-178.98	-1.0805e-005	-1.9174e-007
3436.	9.3489e-006	-178.81	-9.3469e-006	-1.9396e-007
3552.	8.0209e-006	-178.6	-8.0185e-006	-1.9555e-007
3668.	6.814e-006	-178.37	-6.8112e-006	-1.9409e-007
3784.	5.7347e-006	-178.19	-5.7319e-006	-1.8121e-007
3900.	4.8509e-006	-178.89	-4.85e-006	-9.3844e-008
4016.	3.3454e-006	172.86	-3.3195e-006	4.1559e-007
4132.	2.8816e-006	178.74	-2.8809e-006	6.3198e-008
4248.	3.2612e-006	145.21	-2.6782e-006	1.8608e-006
4364.	1.3069e-006	22.521	1.2073e-006	5.0059e-007
4480.	1.3966e-006	-6.0944	1.3887e-006	-1.4827e-007
4596.	2.0041e-006	-7.8009	1.9856e-006	-2.7203e-007
4712.	2.7221e-006	-6.9572	2.7021e-006	-3.2972e-007
4828.	3.484e-006	-6.1312	3.4641e-006	-3.7211e-007
4944.	4.2708e-006	-5.5232	4.251e-006	-4.1106e-007
5060.	5.0779e-006	-5.0934	5.0579e-006	-4.5081e-007
5176.	5.9065e-006	-4.793	5.8858e-006	-4.9353e-007
5292.	6.7607e-006	-4.5871	6.7391e-006	-5.4068e-007
5408.	7.6467e-006	-4.4524	7.6237e-006	-5.9362e-007
5524.	8.5722e-006	-4.3738	8.5472e-006	-6.5374e-007
5640.	9.5462e-006	-4.3417	9.5188e-006	-7.2269e-007
5756.	1.058e-005	-4.3499	1.055e-005	-8.0247e-007
5872.	1.1687e-005	-4.3948	1.1653e-005	-8.9556e-007
5988.	1.2883e-005	-4.475	1.2844e-005	-1.0052e-006
6104.	1.4189e-005	-4.5907	1.4144e-005	-1.1357e-006
6220.	1.5629e-005	-4.7436	1.5576e-005	-1.2925e-006
6336.	1.7237e-005	-4.937	1.7174e-005	-1.4834e-006
6452.	1.906e-005	-5.1752	1.8982e-005	-1.7192e-006
6568.	2.1207e-005	-5.456	2.111e-005	-2.0163e-006
6684.	2.3354e-005	-5.8817	2.3231e-005	-2.3932e-006
6800.	2.625e-005	-6.3081	2.6091e-005	-2.8841e-006
6916.	2.9652e-005	-6.8625	2.944e-005	-3.543e-006
7032.	3.3818e-005	-7.5666	3.3523e-005	-4.4531e-006
7148.	3.9069e-005	-8.4764	3.8643e-005	-5.7589e-006
7264.	4.5917e-005	-9.6862	4.5263e-005	-7.7257e-006
7380.	5.5239e-005	-11.36	5.4156e-005	-1.088e-005
7496.	6.8664e-005	-13.809	6.6679e-005	-1.6389e-005
7612.	8.9563e-005	-17.696	8.5326e-005	-2.7224e-005
7728.	1.2585e-004	-24.678	1.1435e-004	-5.2545e-005
7844.	1.9756e-004	-39.894	1.5157e-004	-1.2671e-004
7960.	3.0874e-004	-78.973	5.9052e-005	-3.0304e-004
8076.	2.4737e-004	-129.62	-1.5773e-004	-1.9056e-004
8192.	1.5447e-004	-151.91	-1.3627e-004	-7.2733e-005
8308.	1.0785e-004	-161.28	-1.0214e-004	-3.4607e-005
8424.	8.2431e-005	-166.31	-8.0087e-005	-1.9515e-005
8540.	6.6645e-005	-169.84	-6.5601e-005	-1.1754e-005
8656.	5.4789e-005	-172.12	-5.4271e-005	-7.5149e-006
8772.	4.711e-005	-172.69	-4.6727e-005	-5.9938e-006
8888.	4.1603e-005	-173.48	-4.1334e-005	-4.7209e-006
9004.	3.7277e-005	-174.22	-3.7088e-005	-3.7521e-006
9120.	3.3797e-005	-174.86	-3.3661e-005	-3.0276e-006
9236.	3.0948e-005	-175.43	-3.085e-005	-2.4685e-006
9352.	2.8585e-005	-175.98	-2.8515e-005	-2.0053e-006
9468.	2.6586e-005	-176.65	-2.6541e-005	-1.5519e-006
9584.	2.4704e-005	-177.64	-2.4683e-005	-1.0192e-006
9700.	2.2771e-005	-177.83	-2.2755e-005	-8.626e-007
9816.	2.1389e-005	-177.43	-2.1368e-005	-9.5783e-007
9932.	2.0273e-005	-177.36	-2.0252e-005	-9.336e-007
10048	1.9275e-005	-177.43	-1.9255e-005	-8.6469e-007
10164	1.8371e-005	-177.54	-1.8354e-005	-7.8896e-007
10280	1.7551e-005	-177.66	-1.7536e-005	-7.1723e-007
10396	1.6804e-005	-177.78	-1.6791e-005	-6.5222e-007
10512	1.6123e-005	-177.89	-1.6112e-005	-5.9415e-007
10628	1.55e-005	-177.99	-1.5491e-005	-5.4252e-007
10744	1.4929e-005	-178.09	-1.492e-005	-4.9661e-007
10860	1.4403e-005	-178.19	-1.4395e-005	-4.5572e-007
10976	1.3917e-005	-178.27	-1.3911e-005	-4.1918e-007
11092	1.3468e-005	-178.36	-1.3463e-005	-3.8646e-007
11208	1.3053e-005	-178.43	-1.3048e-005	-3.5711e-007
11324	1.2666e-005	-178.5	-1.2662e-005	-3.3082e-007
11440	1.2308e-005	-178.57	-1.2304e-005	-3.069e-007
11556	1.1973e-005	-178.64	-1.197e-005	-2.8449e-007
11672	1.1661e-005	-178.7	-1.1658e-005	-2.641e-007
11788	1.1369e-005	-178.76	-1.1366e-005	-2.4556e-007
11904	1.1096e-005	-178.82	-1.1093e-005	-2.2857e-007
12020	1.084e-005	-178.87	-1.0838e-005	-2.1293e-007
12136	1.06e-005	-178.93	-1.0598e-005	-1.9845e-007
12252	1.0376e-005	-178.98	-1.0374e-005	-1.8502e-007
12368	1.0165e-005	-179.03	-1.0164e-005	-1.7249e-007
12484	9.9675e-006	-179.08	-9.9662e-006	-1.6078e-007
12600	9.7823e-006	-179.12	-9.7811e-006	-1.4978e-007
12716	9.6086e-006	-179.17	-9.6076e-006	-1.3942e-007
12832	9.446e-006	-179.21	-9.4451e-006	-1.2962e-007
12948	9.2938e-006	-179.26	-9.293e-006	-1.203e-007
13064	9.1516e-006	-179.3	-9.1509e-006	-1.114e-007
13180	9.019e-006	-179.35	-9.0184e-006	-1.0287e-007
13296	8.8956e-006	-179.39	-8.8951e-006	-9.4648e-008
13412	8.7811e-006	-179.43	-8.7807e-006	-8.6672e-008
13528	8.6754e-006	-179.48	-8.6751e-006	-7.8887e-008
13644	8.5783e-006	-179.52	-8.578e-006	-7.1237e-008
13760	8.4897e-006	-179.57	-8.4894e-006	-6.3661e-008
13876	8.4095e-006	-179.62	-8.4093e-006	-5.6092e-008
13992	8.3379e-006	-179.67	-8.3378e-006	-4.8455e-008
14108	8.275e-006	-179.72	-8.2749e-006	-4.0665e-008
14224	8.2209e-006	-179.77	-8.2209e-006	-3.2615e-008
14340	8.1762e-006	-179.83	-8.1761e-006	-2.417e-008
14456	8.1412e-006	-179.89	-8.1412e-006	-1.5154e-008
14572	8.1168e-006	-179.96	-8.1168e-006	-5.3161e-009
14688	8.1039e-006	179.96	-8.1039e-006	5.7115e-009
14804	8.1041e-006	179.87	-8.104e-006	1.8516e-008
14920	8.1192e-006	179.76	-8.1191e-006	3.411e-008
15036	8.1525e-006	179.62	-8.1523e-006	5.4438e-008
15152	8.2086e-006	179.42	-8.2082e-006	8.374e-008
15268	8.2951e-006	179.08	-8.294e-006	1.3289e-007
15384	8.4185e-006	178.4	-8.4152e-006	2.3517e-007
15500	8.5173e-006	176.73	-8.5034e-006	4.8515e-007
15616	8.2499e-006	175.35	-8.2227e-006	6.6928e-007
15732	8.1955e-006	177.18	-8.1856e-006	4.0257e-007
15848	8.4256e-006	178.03	-8.4206e-006	2.9007e-007
15964	8.7093e-006	178.15	-8.7048e-006	2.8117e-007
16080	9.0466e-006	177.97	-9.041e-006	3.2005e-007
16196	9.4675e-006	177.59	-9.4591e-006	3.9762e-007
16312	1.0023e-005	176.99	-1.0009e-005	5.2596e-007
16428	1.0791e-005	176.07	-1.0766e-005	7.3997e-007
16544	1.1919e-005	174.59	-1.1865e-005	1.1244e-006
16660	1.3718e-005	172.	-1.3584e-005	1.91e-006
16776	1.697e-005	166.76	-1.6519e-005	3.8865e-006
16892	2.3952e-005	153.18	-2.1375e-005	1.0806e-005
17008	3.3956e-005	107.05	-9.9552e-006	3.2464e-005
17124	1.7163e-005	53.139	1.0296e-005	1.3732e-005
17240	7.1122e-006	40.311	5.4234e-006	4.6011e-006
17356	3.0425e-006	45.669	2.1261e-006	2.1763e-006
17472	1.2839e-006	80.866	2.0381e-007	1.2676e-006
17588	1.329e-006	140.7	-1.0284e-006	8.4169e-007
17704	1.9859e-006	162.02	-1.8889e-006	6.1293e-007
17820	2.5776e-006	169.28	-2.5326e-006	4.7931e-007
17936	3.0684e-006	172.55	-3.0425e-006	3.976e-007
18052	3.4847e-006	174.28	-3.4673e-006	3.4717e-007
18168	3.8509e-006	175.27	-3.8378e-006	3.174e-007
18284	4.1861e-006	175.85	-4.1752e-006	3.0263e-007
18400	4.5053e-006	176.18	-4.4953e-006	2.9997e-007
18516	4.8212e-006	176.33	-4.8113e-006	3.0827e-007
18632	5.1458e-006	176.35	-5.1354e-006	3.2778e-007
18748	5.4919e-006	176.24	-5.4801e-006	3.6013e-007
18864	5.8743e-006	176.01	-5.8601e-006	4.0868e-007
18980	6.3121e-006	175.64	-6.2939e-006	4.7941e-007
19096	6.832e-006	175.11	-6.8071e-006	5.8277e-007
19212	7.4739e-006	174.34	-7.4374e-006	7.375e-007
19328	8.3021e-006	173.23	-8.2441e-006	9.7935e-007
19444	9.4282e-006	171.57	-9.3263e-006	1.3824e-006
19560	1.1064e-005	168.96	-1.0859e-005	2.1188e-006
19676	1.3658e-005	164.47	-1.316e-005	3.6558e-006
19792	1.8262e-005	155.63	-1.6635e-005	7.5357e-006
19908	2.6921e-005	134.41	-1.8838e-005	1.9233e-005
20024	3.1445e-005	86.129	2.1227e-006	3.1373e-005
20140	1.8858e-005	46.89	1.2887e-005	1.3767e-005
20256	1.0773e-005	31.769	9.1587e-006	5.6719e-006
20372	6.7203e-006	25.881	6.0463e-006	2.9335e-006
20488	4.4112e-006	24.018	4.0293e-006	1.7955e-006
20604	2.938e-006	24.921	2.6644e-006	1.238e-006
20720	1.9239e-006	29.22	1.6791e-006	9.3917e-007
20836	1.21e-006	40.256	9.2341e-007	7.819e-007
20952	7.9134e-007	66.779	3.12e-007	7.2724e-007
21068	8.0916e-007	104.08	-1.969e-007	7.8484e-007
21184	1.156e-006	119.26	-5.6498e-007	1.0085e-006
21300	1.4483e-006	112.58	-5.5622e-007	1.3373e-006
21416	1.2448e-006	100.53	-2.2755e-007	1.2238e-006
21532	8.4414e-007	107.18	-2.4938e-007	8.0647e-007
21648	7.2176e-007	132.18	-4.8461e-007	5.3487e-007
21764	8.2905e-007	151.94	-7.3159e-007	3.9e-007
21880	9.9858e-007	162.03	-9.4985e-007	3.0815e-007
21996	1.1683e-006	167.25	-1.1395e-006	2.5782e-007
22112	1.3255e-006	170.24	-1.3063e-006	2.2465e-007
22228	1.4694e-006	172.11	-1.4555e-006	2.0167e-007
22344	1.6021e-006	173.36	-1.5914e-006	1.8522e-007
22460	1.7259e-006	174.24	-1.7172e-006	1.7323e-007
22576	1.8436e-006	174.88	-1.8362e-006	1.645e-007
22692	1.9597e-006	175.36	-1.9533e-006	1.5839e-007
22808	2.1033e-006	175.69	-2.0974e-006	1.5804e-007
22924	1.9974e-006	174.53	-1.9883e-006	1.9049e-007
23040	2.2658e-006	176.02	-2.2603e-006	1.573e-007
23156	2.245e-006	175.99	-2.2395e-006	1.5696e-007
23272	2.3828e-006	176.4	-2.3781e-006	1.4963e-007
23388	2.4851e-006	176.53	-2.4806e-006	1.5042e-007
23504	2.5821e-006	176.61	-2.5776e-006	1.5259e-007
23620	2.678e-006	176.67	-2.6735e-006	1.5575e-007
23736	2.7747e-006	176.7	-2.7701e-006	1.5986e-007
23852	2.8733e-006	176.71	-2.8686e-006	1.6492e-007
23968	2.9749e-006	176.71	-2.9699e-006	1.7097e-007
24084	3.0803e-006	176.69	-3.0751e-006	1.781e-007
24200	3.1906e-006	176.65	-3.1852e-006	1.8641e-007
24316	3.3071e-006	176.6	-3.3013e-006	1.9603e-007
24432	3.4309e-006	176.54	-3.4247e-006	2.0715e-007
24548	3.5638e-006	176.46	-3.557e-006	2.2001e-007
24664	3.7075e-006	176.37	-3.7001e-006	2.3493e-007
24780	3.8645e-006	176.26	-3.8563e-006	2.5231e-007
24896	4.0378e-006	176.13	-4.0286e-006	2.7272e-007
25012	4.2313e-006	175.98	-4.2209e-006	2.9694e-007
25128	4.4504e-006	175.8	-4.4384e-006	3.2609e-007
25244	4.7023e-006	175.59	-4.6884e-006	3.6182e-007
25360	4.9978e-006	175.33	-4.9812e-006	4.067e-007
25476	5.3528e-006	175.02	-5.3325e-006	4.6501e-007
25592	5.7929e-006	174.61	-5.7673e-006	5.4433e-007
25708	6.362e-006	174.05	-6.3277e-006	6.5948e-007
25824	7.1394e-006	173.21	-7.0893e-006	8.4377e-007
25940	8.3096e-006	171.82	-8.2251e-006	1.1819e-006
26056	1.0315e-005	169.	-1.0126e-005	1.9679e-006
26172	1.4694e-005	161.27	-1.3916e-005	4.7175e-006
26288	2.6649e-005	124.66	-1.5155e-005	2.192e-005
26404	1.3161e-005	52.181	8.0697e-006	1.0396e-005
26520	4.236e-006	51.038	2.6636e-006	3.2938e-006
26636	2.0483e-006	95.25	-1.8744e-007	2.0397e-006
26752	2.5633e-006	136.68	-1.8647e-006	1.7587e-006
26868	3.5634e-006	149.74	-3.078e-006	1.7955e-006
26984	4.5689e-006	153.82	-4.1002e-006	2.0157e-006
27100	5.604e-006	154.56	-5.0604e-006	2.4076e-006
27216	6.7422e-006	153.4	-6.0287e-006	3.0185e-006
27332	8.069e-006	150.66	-7.0339e-006	3.9539e-006
27448	9.6812e-006	146.08	-8.0337e-006	5.4024e-006
27564	1.166e-005	138.98	-8.7972e-006	7.6529e-006
27680	1.3934e-005	128.25	-8.6275e-006	1.0942e-005
27796	1.5899e-005	113.07	-6.2297e-006	1.4627e-005
27912	1.6297e-005	95.185	-1.4729e-006	1.6231e-005
28028	1.4875e-005	79.917	2.6044e-006	1.4646e-005
28144	1.3188e-005	70.412	4.4214e-006	1.2425e-005
28260	1.2318e-005	63.381	5.5192e-006	1.1013e-005
28376	1.1727e-005	54.062	6.8826e-006	9.4947e-006
28492	1.0604e-005	43.64	7.6741e-006	7.3181e-006
28608	9.1756e-006	35.164	7.5011e-006	5.2844e-006
28724	7.8538e-006	29.142	6.8596e-006	3.8246e-006
28840	6.7617e-006	24.933	6.1315e-006	2.8504e-006
28956	5.8823e-006	21.916	5.4571e-006	2.1956e-006
29072	5.1707e-006	19.685	4.8685e-006	1.7417e-006
29188	4.587e-006	17.987	4.3628e-006	1.4165e-006
29304	4.1008e-006	16.665	3.9286e-006	1.176e-006
29420	3.69e-006	15.616	3.5538e-006	9.9334e-007
29536	3.3383e-006	14.773	3.2279e-006	8.5123e-007
29652	3.0337e-006	14.086	2.9425e-006	7.3833e-007
29768	2.7671e-006	13.518	2.6905e-006	6.4684e-007
29884	2.5318e-006	13.039	2.4665e-006	5.7121e-007
30000	2.3223e-006	12.618	2.2662e-006	5.0732e-007
